 frequency       db(v(Z))       
 1.00000000e+00 -2.33260114e-01 
 1.07177346e+00 -2.33299731e-01 
 1.14869835e+00 -2.33345239e-01 
 1.23114441e+00 -2.33397512e-01 
 1.31950791e+00 -2.33457558e-01 
 1.41421356e+00 -2.33526532e-01 
 1.51571657e+00 -2.33605761e-01 
 1.62450479e+00 -2.33696769e-01 
 1.74110113e+00 -2.33801308e-01 
 1.86606598e+00 -2.33921388e-01 
 2.00000000e+00 -2.34059320e-01 
 2.14354693e+00 -2.34217756e-01 
 2.29739671e+00 -2.34399745e-01 
 2.46228883e+00 -2.34608786e-01 
 2.63901582e+00 -2.34848898e-01 
 2.82842712e+00 -2.35124699e-01 
 3.03143313e+00 -2.35441488e-01 
 3.24900959e+00 -2.35805356e-01 
 3.48220225e+00 -2.36223292e-01 
 3.73213197e+00 -2.36703325e-01 
 4.00000000e+00 -2.37254673e-01 
 4.28709385e+00 -2.37887918e-01 
 4.59479342e+00 -2.38615213e-01 
 4.92457765e+00 -2.39450505e-01 
 5.27803164e+00 -2.40409804e-01 
 5.65685425e+00 -2.41511489e-01 
 6.06286627e+00 -2.42776648e-01 
 6.49801917e+00 -2.44229479e-01 
 6.96440451e+00 -2.45897744e-01 
 7.46426393e+00 -2.47813287e-01 
 8.00000000e+00 -2.50012626e-01 
 8.57418770e+00 -2.52537629e-01 
 9.18958684e+00 -2.55436285e-01 
 9.84915531e+00 -2.58763581e-01 
 1.05560633e+01 -2.62582497e-01 
 1.13137085e+01 -2.66965139e-01 
 1.21257325e+01 -2.71994021e-01 
 1.29960383e+01 -2.77763513e-01 
 1.39288090e+01 -2.84381472e-01 
 1.49285279e+01 -2.91971087e-01 
 1.60000000e+01 -3.00672928e-01 
 1.71483754e+01 -3.10647249e-01 
 1.83791737e+01 -3.22076535e-01 
 1.96983106e+01 -3.35168324e-01 
 2.11121266e+01 -3.50158298e-01 
 2.26274170e+01 -3.67313646e-01 
 2.42514651e+01 -3.86936697e-01 
 2.59920767e+01 -4.09368783e-01 
 2.78576180e+01 -4.34994300e-01 
 2.98570557e+01 -4.64244890e-01 
 3.20000000e+01 -4.97603651e-01 
 3.42967508e+01 -5.35609233e-01 
 3.67583474e+01 -5.78859637e-01 
 3.93966212e+01 -6.28015501e-01 
 4.22242531e+01 -6.83802567e-01 
 4.52548340e+01 -7.47013004e-01 
 4.85029301e+01 -8.18505193e-01 
 5.19841534e+01 -8.99201530e-01 
 5.57152361e+01 -9.90083811e-01 
 5.97141115e+01 -1.09218573e+00 
 6.40000000e+01 -1.20658216e+00 
 6.85935016e+01 -1.33437481e+00 
 7.35166947e+01 -1.47667436e+00 
 7.87932425e+01 -1.63457897e+00 
 8.44485063e+01 -1.80914982e+00 
 9.05096680e+01 -2.00138428e+00 
 9.70058603e+01 -2.21218795e+00 
 1.03968307e+02 -2.44234688e+00 
 1.11430472e+02 -2.69250173e+00 
 1.19428223e+02 -2.96312540e+00 
 1.28000000e+02 -3.25450584e+00 
 1.37187003e+02 -3.56673525e+00 
 1.47033389e+02 -3.89970666e+00 
 1.57586485e+02 -4.25311789e+00 
 1.68897013e+02 -4.62648291e+00 
 1.81019336e+02 -5.01914942e+00 
 1.94011721e+02 -5.43032154e+00 
 2.07936613e+02 -5.85908589e+00 
 2.22860944e+02 -6.30443939e+00 
 2.38856446e+02 -6.76531720e+00 
 2.56000000e+02 -7.24061943e+00 
 2.74374006e+02 -7.72923538e+00 
 2.94066779e+02 -8.23006474e+00 
 3.15172970e+02 -8.74203527e+00 
 3.37794025e+02 -9.26411681e+00 
 3.62038672e+02 -9.79533176e+00 
 3.88023441e+02 -1.03347624e+01 
 4.15873227e+02 -1.08815551e+01 
 4.45721888e+02 -1.14349228e+01 
 4.77712892e+02 -1.19941446e+01 
 5.12000000e+02 -1.25585646e+01 
 5.48748013e+02 -1.31275893e+01 
 5.88133558e+02 -1.37006845e+01 
 6.30345940e+02 -1.42773708e+01 
 6.75588050e+02 -1.48572205e+01 
 7.24077344e+02 -1.54398524e+01 
 7.76046882e+02 -1.60249282e+01 
 8.31746454e+02 -1.66121483e+01 
 8.91443777e+02 -1.72012481e+01 
 9.55425783e+02 -1.77919941e+01 
 1.02400000e+03 -1.83841806e+01 
 1.09749603e+03 -1.89776270e+01 
 1.17626712e+03 -1.95721745e+01 
 1.26069188e+03 -2.01676840e+01 
 1.35117610e+03 -2.07640335e+01 
 1.44815469e+03 -2.13611162e+01 
 1.55209376e+03 -2.19588387e+01 
 1.66349291e+03 -2.25571192e+01 
 1.78288755e+03 -2.31558865e+01 
 1.91085157e+03 -2.37550781e+01 
 2.04800000e+03 -2.43546397e+01 
 2.19499205e+03 -2.49545238e+01 
 2.35253423e+03 -2.55546889e+01 
 2.52138376e+03 -2.61550989e+01 
 2.70235220e+03 -2.67557223e+01 
 2.89630938e+03 -2.73565317e+01 
 3.10418753e+03 -2.79575032e+01 
 3.32698582e+03 -2.85586158e+01 
 3.56577511e+03 -2.91598516e+01 
 3.82170313e+03 -2.97611945e+01 
 4.09600000e+03 -3.03626310e+01 
 4.38998410e+03 -3.09641490e+01 
 4.70506846e+03 -3.15657381e+01 
 5.04276752e+03 -3.21673894e+01 
 5.40470440e+03 -3.27690949e+01 
 5.79261875e+03 -3.33708478e+01 
 6.20837506e+03 -3.39726422e+01 
 6.65397163e+03 -3.45744731e+01 
 7.13155021e+03 -3.51763360e+01 
 7.64340627e+03 -3.57782271e+01 
 8.19200000e+03 -3.63801432e+01 
 8.77996821e+03 -3.69820815e+01 
 9.41013692e+03 -3.75840397e+01 
 1.00855350e+04 -3.81860158e+01 
 1.08094088e+04 -3.87880083e+01 
 1.15852375e+04 -3.93900157e+01 
 1.24167501e+04 -3.99920371e+01 
 1.33079433e+04 -4.05940718e+01 
 1.42631004e+04 -4.11961192e+01 
 1.52868125e+04 -4.17981792e+01 
 1.63840000e+04 -4.24002517e+01 
 1.75599364e+04 -4.30023369e+01 
 1.88202738e+04 -4.36044354e+01 
 2.01710701e+04 -4.42065479e+01 
 2.16188176e+04 -4.48086754e+01 
 2.31704750e+04 -4.54108192e+01 
 2.48335002e+04 -4.60129809e+01 
 2.66158865e+04 -4.66151625e+01 
 2.85262009e+04 -4.72173663e+01 
 3.05736251e+04 -4.78195951e+01 
 3.27680000e+04 -4.84218521e+01 
 3.51198728e+04 -4.90241412e+01 
 3.76405477e+04 -4.96264667e+01 
 4.03421401e+04 -5.02288338e+01 
 4.32376352e+04 -5.08312483e+01 
 4.63409500e+04 -5.14337172e+01 
 4.96670005e+04 -5.20362482e+01 
 5.32317730e+04 -5.26388505e+01 
 5.70524017e+04 -5.32415345e+01 
 6.11472501e+04 -5.38443123e+01 
 6.55360000e+04 -5.44471977e+01 
 7.02397456e+04 -5.50502066e+01 
 7.52810954e+04 -5.56533573e+01 
 8.06842803e+04 -5.62566709e+01 
 8.64752704e+04 -5.68601716e+01 
 9.26819000e+04 -5.74638872e+01 
 9.93340009e+04 -5.80678498e+01 
 1.06463546e+05 -5.86720962e+01 
 1.14104803e+05 -5.92766686e+01 
 1.22294500e+05 -5.98816158e+01 
 1.31072000e+05 -6.04869937e+01 
 1.40479491e+05 -6.10928669e+01 
 1.50562191e+05 -6.16993093e+01 
 1.61368561e+05 -6.23064064e+01 
 1.72950541e+05 -6.29142563e+01 
 1.85363800e+05 -6.35229721e+01 
 1.98668002e+05 -6.41326842e+01 
 2.12927092e+05 -6.47435426e+01 
 2.28209607e+05 -6.53557204e+01 
 2.44589001e+05 -6.59694172e+01 
 2.62144000e+05 -6.65848634e+01 
 2.80958983e+05 -6.72023248e+01 
 3.01124382e+05 -6.78221086e+01 
 3.22737121e+05 -6.84445698e+01 
 3.45901082e+05 -6.90701190e+01 
 3.70727600e+05 -6.96992316e+01 
 3.97336004e+05 -7.03324578e+01 
 4.25854184e+05 -7.09704355e+01 
 4.56419214e+05 -7.16139041e+01 
 4.89178001e+05 -7.22637214e+01 
 5.24288000e+05 -7.29208827e+01 
 5.61917965e+05 -7.35865426e+01 
 6.02248763e+05 -7.42620407e+01 
 6.45474242e+05 -7.49489292e+01 
 6.91802164e+05 -7.56490048e+01 
 7.41455200e+05 -7.63643428e+01 
 7.94672007e+05 -7.70973322e+01 
 8.51708369e+05 -7.78507124e+01 
 9.12838427e+05 -7.86276063e+01 
 9.78356002e+05 -7.94315482e+01 
