 frequency       db(v(Z))       
 1.00000000e+00 -2.35048181e-01 
 1.07177346e+00 -2.35075022e-01 
 1.14869835e+00 -2.35105854e-01 
 1.23114441e+00 -2.35141269e-01 
 1.31950791e+00 -2.35181951e-01 
 1.41421356e+00 -2.35228682e-01 
 1.51571657e+00 -2.35282361e-01 
 1.62450479e+00 -2.35344021e-01 
 1.74110113e+00 -2.35414848e-01 
 1.86606598e+00 -2.35496206e-01 
 2.00000000e+00 -2.35589660e-01 
 2.14354693e+00 -2.35697008e-01 
 2.29739671e+00 -2.35820316e-01 
 2.46228883e+00 -2.35961954e-01 
 2.63901582e+00 -2.36124648e-01 
 2.82842712e+00 -2.36311527e-01 
 3.03143313e+00 -2.36526185e-01 
 3.24900959e+00 -2.36772749e-01 
 3.48220225e+00 -2.37055959e-01 
 3.73213197e+00 -2.37381259e-01 
 4.00000000e+00 -2.37754901e-01 
 4.28709385e+00 -2.38184064e-01 
 4.59479342e+00 -2.38676989e-01 
 4.92457765e+00 -2.39243143e-01 
 5.27803164e+00 -2.39893392e-01 
 5.65685425e+00 -2.40640211e-01 
 6.06286627e+00 -2.41497923e-01 
 6.49801917e+00 -2.42482966e-01 
 6.96440451e+00 -2.43614208e-01 
 7.46426393e+00 -2.44913301e-01 
 8.00000000e+00 -2.46405086e-01 
 8.57418770e+00 -2.48118066e-01 
 9.18958684e+00 -2.50084930e-01 
 9.84915531e+00 -2.52343164e-01 
 1.05560633e+01 -2.54935745e-01 
 1.13137085e+01 -2.57911931e-01 
 1.21257325e+01 -2.61328155e-01 
 1.29960383e+01 -2.65249052e-01 
 1.39288090e+01 -2.69748617e-01 
 1.49285279e+01 -2.74911512e-01 
 1.60000000e+01 -2.80834557e-01 
 1.71483754e+01 -2.87628395e-01 
 1.83791737e+01 -2.95419372e-01 
 1.96983106e+01 -3.04351639e-01 
 2.11121266e+01 -3.14589500e-01 
 2.26274170e+01 -3.26320006e-01 
 2.42514651e+01 -3.39755833e-01 
 2.59920767e+01 -3.55138421e-01 
 2.78576180e+01 -3.72741396e-01 
 2.98570557e+01 -3.92874242e-01 
 3.20000000e+01 -4.15886214e-01 
 3.42967508e+01 -4.42170420e-01 
 3.67583474e+01 -4.72168024e-01 
 3.93966212e+01 -5.06372442e-01 
 4.22242531e+01 -5.45333398e-01 
 4.52548340e+01 -5.89660645e-01 
 4.85029301e+01 -6.40027117e-01 
 5.19841534e+01 -6.97171204e-01 
 5.57152361e+01 -7.61897817e-01 
 5.97141115e+01 -8.35077821e-01 
 6.40000000e+01 -9.17645418e-01 
 6.85935016e+01 -1.01059301e+00 
 7.35166947e+01 -1.11496311e+00 
 7.87932425e+01 -1.23183693e+00 
 8.44485063e+01 -1.36231940e+00 
 9.05096680e+01 -1.50752057e+00 
 9.70058603e+01 -1.66853351e+00 
 1.03968307e+02 -1.84640930e+00 
 1.11430472e+02 -2.04212994e+00 
 1.19428223e+02 -2.25658027e+00 
 1.28000000e+02 -2.49052044e+00 
 1.37187003e+02 -2.74456060e+00 
 1.47033389e+02 -3.01913940e+00 
 1.57586485e+02 -3.31450797e+00 
 1.68897013e+02 -3.63072044e+00 
 1.81019336e+02 -3.96763193e+00 
 1.94011721e+02 -4.32490402e+00 
 2.07936613e+02 -4.70201732e+00 
 2.22860944e+02 -5.09829017e+00 
 2.38856446e+02 -5.51290212e+00 
 2.56000000e+02 -5.94492045e+00 
 2.74374006e+02 -6.39332812e+00 
 2.94066779e+02 -6.85705158e+00 
 3.15172970e+02 -7.33498708e+00 
 3.37794025e+02 -7.82602438e+00 
 3.62038672e+02 -8.32906728e+00 
 3.88023441e+02 -8.84305062e+00 
 4.15873227e+02 -9.36695359e+00 
 4.45721888e+02 -9.89980956e+00 
 4.77712892e+02 -1.04407128e+01 
 5.12000000e+02 -1.09888225e+01 
 5.48748013e+02 -1.15433640e+01 
 5.88133558e+02 -1.21036292e+01 
 6.30345940e+02 -1.26689743e+01 
 6.75588050e+02 -1.32388175e+01 
 7.24077344e+02 -1.38126352e+01 
 7.76046882e+02 -1.43899585e+01 
 8.31746454e+02 -1.49703686e+01 
 8.91443777e+02 -1.55534931e+01 
 9.55425783e+02 -1.61390013e+01 
 1.02400000e+03 -1.67266006e+01 
 1.09749603e+03 -1.73160326e+01 
 1.17626712e+03 -1.79070694e+01 
 1.26069188e+03 -1.84995103e+01 
 1.35117610e+03 -1.90931791e+01 
 1.44815469e+03 -1.96879211e+01 
 1.55209376e+03 -2.02836004e+01 
 1.66349291e+03 -2.08800981e+01 
 1.78288755e+03 -2.14773103e+01 
 1.91085157e+03 -2.20751457e+01 
 2.04800000e+03 -2.26735248e+01 
 2.19499205e+03 -2.32723781e+01 
 2.35253423e+03 -2.38716449e+01 
 2.52138376e+03 -2.44712720e+01 
 2.70235220e+03 -2.50712133e+01 
 2.89630938e+03 -2.56714284e+01 
 3.10418753e+03 -2.62718821e+01 
 3.32698582e+03 -2.68725437e+01 
 3.56577511e+03 -2.74733866e+01 
 3.82170313e+03 -2.80743874e+01 
 4.09600000e+03 -2.86755259e+01 
 4.38998410e+03 -2.92767844e+01 
 4.70506846e+03 -2.98781475e+01 
 5.04276752e+03 -3.04796019e+01 
 5.40470440e+03 -3.10811360e+01 
 5.79261875e+03 -3.16827396e+01 
 6.20837506e+03 -3.22844040e+01 
 6.65397163e+03 -3.28861215e+01 
 7.13155021e+03 -3.34878857e+01 
 7.64340627e+03 -3.40896909e+01 
 8.19200000e+03 -3.46915320e+01 
 8.77996821e+03 -3.52934050e+01 
 9.41013692e+03 -3.58953062e+01 
 1.00855350e+04 -3.64972325e+01 
 1.08094088e+04 -3.70991815e+01 
 1.15852375e+04 -3.77011509e+01 
 1.24167501e+04 -3.83031391e+01 
 1.33079433e+04 -3.89051446e+01 
 1.42631004e+04 -3.95071663e+01 
 1.52868125e+04 -4.01092037e+01 
 1.63840000e+04 -4.07112562e+01 
 1.75599364e+04 -4.13133236e+01 
 1.88202738e+04 -4.19154062e+01 
 2.01710701e+04 -4.25175043e+01 
 2.16188176e+04 -4.31196187e+01 
 2.31704750e+04 -4.37217505e+01 
 2.48335002e+04 -4.43239010e+01 
 2.66158865e+04 -4.49260719e+01 
 2.85262009e+04 -4.55282655e+01 
 3.05736251e+04 -4.61304842e+01 
 3.27680000e+04 -4.67327311e+01 
 3.51198728e+04 -4.73350099e+01 
 3.76405477e+04 -4.79373248e+01 
 4.03421401e+04 -4.85396805e+01 
 4.32376352e+04 -4.91420830e+01 
 4.63409500e+04 -4.97445387e+01 
 4.96670005e+04 -5.03470553e+01 
 5.32317730e+04 -5.09496415e+01 
 5.70524017e+04 -5.15523076e+01 
 6.11472501e+04 -5.21550652e+01 
 6.55360000e+04 -5.27579278e+01 
 7.02397456e+04 -5.33609108e+01 
 7.52810954e+04 -5.39640321e+01 
 8.06842803e+04 -5.45673121e+01 
 8.64752704e+04 -5.51707745e+01 
 9.26819000e+04 -5.57744463e+01 
 9.93340009e+04 -5.63783587e+01 
 1.06463546e+05 -5.69825475e+01 
 1.14104803e+05 -5.75870540e+01 
 1.22294500e+05 -5.81919255e+01 
 1.31072000e+05 -5.87972167e+01 
 1.40479491e+05 -5.94029902e+01 
 1.50562191e+05 -6.00093183e+01 
 1.61368561e+05 -6.06162842e+01 
 1.72950541e+05 -6.12239835e+01 
 1.85363800e+05 -6.18325263e+01 
 1.98668002e+05 -6.24420398e+01 
 2.12927092e+05 -6.30526703e+01 
 2.28209607e+05 -6.36645864e+01 
 2.44589001e+05 -6.42779827e+01 
 2.62144000e+05 -6.48930840e+01 
 2.80958983e+05 -6.55101494e+01 
 3.01124382e+05 -6.61294787e+01 
 3.22737121e+05 -6.67514183e+01 
 3.45901082e+05 -6.73763690e+01 
 3.70727600e+05 -6.80047949e+01 
 3.97336004e+05 -6.86372333e+01 
 4.25854184e+05 -6.92743076e+01 
 4.56419214e+05 -6.99167404e+01 
 4.89178001e+05 -7.05653706e+01 
 5.24288000e+05 -7.12211717e+01 
 5.61917965e+05 -7.18852739e+01 
 6.02248763e+05 -7.25589890e+01 
 6.45474242e+05 -7.32438379e+01 
 6.91802164e+05 -7.39415822e+01 
 7.41455200e+05 -7.46542574e+01 
 7.94672007e+05 -7.53842084e+01 
 8.51708369e+05 -7.61341251e+01 
 9.12838427e+05 -7.69070756e+01 
 9.78356002e+05 -7.77065332e+01 
